"Time (s)","Recording (a.u.)"
0.000000000E0,-8.589711040E-3
2.083333333E-5,-1.028792560E-2
4.166666667E-5,-1.218673121E-2
6.250000000E-5,-1.450278144E-2
8.333333333E-5,-1.694644056E-2
1.041666667E-4,-1.996743679E-2
1.250000000E-4,-2.321146056E-2
1.458333333E-4,-2.623881027E-2
1.666666667E-4,-2.844444662E-2
1.875000000E-4,-2.946583740E-2
2.083333333E-4,-3.030339256E-2
2.291666667E-4,-3.061315976E-2
2.500000000E-4,-3.130937368E-2
2.708333333E-4,-3.283629194E-2
2.916666667E-4,-3.375743702E-2
3.125000000E-4,-3.426818550E-2
3.333333333E-4,-3.447166085E-2
3.541666667E-4,-3.353114799E-2
3.750000000E-4,-3.161327541E-2
3.958333333E-4,-3.081417643E-2
4.166666667E-4,-3.125960752E-2
4.375000000E-4,-3.162843734E-2
4.583333333E-4,-3.224929795E-2
4.791666667E-4,-3.213346004E-2
5.000000000E-4,-2.990879864E-2
5.208333333E-4,-2.648843452E-2
5.416666667E-4,-2.362022921E-2
5.625000000E-4,-2.190136537E-2
5.833333333E-4,-2.085376531E-2
6.041666667E-4,-1.960591041E-2
6.250000000E-4,-1.856287941E-2
6.458333333E-4,-1.873847842E-2
6.666666667E-4,-1.908179000E-2
6.875000000E-4,-1.940066181E-2
7.083333333E-4,-1.993793994E-2
7.291666667E-4,-1.979184709E-2
7.500000000E-4,-1.965996809E-2
7.708333333E-4,-2.026503161E-2
7.916666667E-4,-2.085126564E-2
8.125000000E-4,-2.129295282E-2
8.333333333E-4,-2.241037041E-2
8.541666667E-4,-2.330059931E-2
8.750000000E-4,-2.252706885E-2
8.958333333E-4,-2.101008222E-2
9.166666667E-4,-1.970667392E-2
9.375000000E-4,-1.805095188E-2
9.583333333E-4,-1.642644219E-2
9.791666667E-4,-1.635207422E-2
1.000000000E-3,-1.731647365E-2
1.020833333E-3,-1.802179776E-2
1.041666667E-3,-1.844834164E-2
1.062500000E-3,-1.815480366E-2
1.083333333E-3,-1.672843844E-2
1.104166667E-3,-1.523709297E-2
1.125000000E-3,-1.523379236E-2
1.145833333E-3,-1.646118052E-2
1.166666667E-3,-1.758410968E-2
1.187500000E-3,-1.814833470E-2
1.208333333E-3,-1.799943671E-2
1.229166667E-3,-1.723442599E-2
1.250000000E-3,-1.640756056E-2
1.270833333E-3,-1.633226126E-2
1.291666667E-3,-1.765097305E-2
1.312500000E-3,-2.030405030E-2
1.333333333E-3,-2.281905524E-2
1.354166667E-3,-2.400505170E-2
1.375000000E-3,-2.433523163E-2
1.395833333E-3,-2.351992764E-2
1.416666667E-3,-2.234031260E-2
1.437500000E-3,-2.178962156E-2
1.458333333E-3,-2.069081552E-2
1.479166667E-3,-1.934463345E-2
1.500000000E-3,-1.728064753E-2
1.520833333E-3,-1.360926498E-2
1.541666667E-3,-1.077053696E-2
1.562500000E-3,-9.410761297E-3
1.583333333E-3,-8.553806692E-3
1.604166667E-3,-9.053667076E-3
1.625000000E-3,-9.683287703E-3
1.645833333E-3,-8.524600416E-3
1.666666667E-3,-6.945044734E-3
1.687500000E-3,-5.370962434E-3
1.708333333E-3,-2.853088081E-3
1.729166667E-3,-5.549350753E-4
1.750000000E-3,1.137574203E-3
1.770833333E-3,2.778554801E-3
1.791666667E-3,3.511095885E-3
1.812500000E-3,2.553574741E-3
1.833333333E-3,3.372059437E-4
1.854166667E-3,-1.750330324E-3
1.875000000E-3,-3.463998670E-3
1.895833333E-3,-5.085783079E-3
1.916666667E-3,-5.334966816E-3
1.937500000E-3,-4.564472940E-3
1.958333333E-3,-4.880470224E-3
1.979166667E-3,-5.886236206E-3
2.000000000E-3,-6.868214812E-3
2.020833333E-3,-9.031719528E-3
2.041666667E-3,-1.130007114E-2
2.062500000E-3,-1.211551204E-2
2.083333333E-3,-1.265897322E-2
2.104166667E-3,-1.343585644E-2
2.125000000E-3,-1.440976001E-2
2.145833333E-3,-1.582085714E-2
2.166666667E-3,-1.725140214E-2
2.187500000E-3,-1.851351932E-2
2.208333333E-3,-1.932911575E-2
2.229166667E-3,-1.972132176E-2
2.250000000E-3,-2.006931230E-2
2.270833333E-3,-2.020868286E-2
2.291666667E-3,-1.997903921E-2
2.312500000E-3,-2.014617994E-2
2.333333333E-3,-2.147455513E-2
2.354166667E-3,-2.261977643E-2
2.375000000E-3,-2.281517163E-2
2.395833333E-3,-2.277396806E-2
2.416666667E-3,-2.208122611E-2
2.437500000E-3,-2.120302990E-2
2.458333333E-3,-2.058388293E-2
2.479166667E-3,-1.948087104E-2
2.500000000E-3,-1.827605814E-2
2.520833333E-3,-1.758605987E-2
2.541666667E-3,-1.736546680E-2
2.562500000E-3,-1.806854829E-2
2.583333333E-3,-1.979194209E-2
2.604166667E-3,-2.096357197E-2
2.625000000E-3,-2.113349363E-2
2.645833333E-3,-2.126423270E-2
2.666666667E-3,-2.178101428E-2
2.687500000E-3,-2.355247363E-2
2.708333333E-3,-2.700649761E-2
2.729166667E-3,-3.112741932E-2
2.750000000E-3,-3.409333900E-2
2.770833333E-3,-3.516293317E-2
2.791666667E-3,-3.528771922E-2
2.812500000E-3,-3.479196876E-2
2.833333333E-3,-3.427457809E-2
2.854166667E-3,-3.468992189E-2
2.875000000E-3,-3.577240556E-2
2.895833333E-3,-3.742081672E-2
2.916666667E-3,-3.917602450E-2
2.937500000E-3,-4.039542377E-2
2.958333333E-3,-4.096695036E-2
2.979166667E-3,-4.088826478E-2
3.000000000E-3,-4.131270945E-2
3.020833333E-3,-4.296008497E-2
3.041666667E-3,-4.516192526E-2
3.062500000E-3,-4.713281244E-2
3.083333333E-3,-4.845892638E-2
3.104166667E-3,-4.918718711E-2
3.125000000E-3,-4.952290282E-2
3.145833333E-3,-5.016160384E-2
3.166666667E-3,-5.116872117E-2
3.187500000E-3,-5.218837783E-2
3.208333333E-3,-5.359666795E-2
3.229166667E-3,-5.477422476E-2
3.250000000E-3,-5.456893891E-2
3.270833333E-3,-5.337404832E-2
3.291666667E-3,-5.213715509E-2
3.312500000E-3,-5.067595094E-2
3.333333333E-3,-4.936388135E-2
3.354166667E-3,-4.890656844E-2
3.375000000E-3,-4.874078184E-2
3.395833333E-3,-4.859790951E-2
3.416666667E-3,-4.839835316E-2
3.437500000E-3,-4.807265848E-2
3.458333333E-3,-4.686229303E-2
3.479166667E-3,-4.417121783E-2
3.500000000E-3,-4.118067399E-2
3.520833333E-3,-3.879082948E-2
3.541666667E-3,-3.793963790E-2
3.562500000E-3,-3.906458616E-2
3.583333333E-3,-4.149889573E-2
3.604166667E-3,-4.402239248E-2
3.625000000E-3,-4.510917515E-2
3.645833333E-3,-4.506990314E-2
3.666666667E-3,-4.437484592E-2
3.687500000E-3,-4.359892011E-2
3.708333333E-3,-4.381003231E-2
3.729166667E-3,-4.421470314E-2
3.750000000E-3,-4.412294924E-2
3.770833333E-3,-4.367616028E-2
3.791666667E-3,-4.285236448E-2
3.812500000E-3,-4.166388884E-2
3.833333333E-3,-4.062470794E-2
3.854166667E-3,-4.020830616E-2
3.875000000E-3,-4.005102068E-2
3.895833333E-3,-4.040773958E-2
3.916666667E-3,-4.057746753E-2
3.937500000E-3,-3.972013667E-2
3.958333333E-3,-3.953011334E-2
3.979166667E-3,-3.995253146E-2
4.000000000E-3,-4.019606486E-2
4.020833333E-3,-4.144211113E-2
4.041666667E-3,-4.296426848E-2
4.062500000E-3,-4.375486076E-2
4.083333333E-3,-4.419118911E-2
4.104166667E-3,-4.432635382E-2
4.125000000E-3,-4.418032989E-2
4.145833333E-3,-4.391906410E-2
4.166666667E-3,-4.448606074E-2
4.187500000E-3,-4.503028840E-2
4.208333333E-3,-4.382691532E-2
4.229166667E-3,-4.197284207E-2
4.250000000E-3,-3.976257145E-2
4.270833333E-3,-3.703982756E-2
4.291666667E-3,-3.533529490E-2
4.312500000E-3,-3.473404422E-2
4.333333333E-3,-3.431860358E-2
4.354166667E-3,-3.395804018E-2
4.375000000E-3,-3.398095071E-2
4.395833333E-3,-3.381637484E-2
4.416666667E-3,-3.286689892E-2
4.437500000E-3,-3.252260387E-2
4.458333333E-3,-3.297233582E-2
4.479166667E-3,-3.286610916E-2
4.500000000E-3,-3.265622258E-2
4.520833333E-3,-3.255917504E-2
4.541666667E-3,-3.131005913E-2
4.562500000E-3,-2.925481275E-2
4.583333333E-3,-2.724990435E-2
4.604166667E-3,-2.480677515E-2
4.625000000E-3,-2.308979630E-2
4.645833333E-3,-2.224371955E-2
4.666666667E-3,-2.058007009E-2
4.687500000E-3,-1.953380741E-2
4.708333333E-3,-1.960144751E-2
4.729166667E-3,-1.921516843E-2
4.750000000E-3,-1.869290322E-2
4.770833333E-3,-1.806963608E-2
4.791666667E-3,-1.681905054E-2
4.812500000E-3,-1.553409919E-2
4.833333333E-3,-1.453443430E-2
4.854166667E-3,-1.364542451E-2
4.875000000E-3,-1.351062022E-2
4.895833333E-3,-1.399913244E-2
4.916666667E-3,-1.445588749E-2
4.937500000E-3,-1.530881692E-2
4.958333333E-3,-1.554531232E-2
4.979166667E-3,-1.443370245E-2
5.000000000E-3,-1.369824819E-2
5.020833333E-3,-1.362400874E-2
5.041666667E-3,-1.334282942E-2
5.062500000E-3,-1.275079325E-2
5.083333333E-3,-1.163618453E-2
5.104166667E-3,-1.050361618E-2
5.125000000E-3,-1.021137089E-2
5.145833333E-3,-1.070898399E-2
5.166666667E-3,-1.186566241E-2
5.187500000E-3,-1.332631148E-2
5.208333333E-3,-1.399610937E-2
5.229166667E-3,-1.349209994E-2
5.250000000E-3,-1.198665518E-2
5.270833333E-3,-9.897636250E-3
5.291666667E-3,-8.437787183E-3
5.312500000E-3,-8.018800989E-3
5.333333333E-3,-8.137557656E-3
5.354166667E-3,-8.404076099E-3
5.375000000E-3,-8.617108688E-3
5.395833333E-3,-8.835757151E-3
5.416666667E-3,-8.795920759E-3
5.437500000E-3,-8.046235889E-3
5.458333333E-3,-7.042543031E-3
5.479166667E-3,-6.262494251E-3
5.500000000E-3,-5.382626317E-3
5.520833333E-3,-4.571387544E-3
5.541666667E-3,-3.814438824E-3
5.562500000E-3,-2.920681378E-3
5.583333333E-3,-2.293989528E-3
5.604166667E-3,-1.943854615E-3
5.625000000E-3,-1.622541342E-3
5.645833333E-3,-7.308007916E-4
5.666666667E-3,9.861157741E-4
5.687500000E-3,3.085738979E-3
5.708333333E-3,5.627181847E-3
5.729166667E-3,8.086642250E-3
5.750000000E-3,9.393988177E-3
5.770833333E-3,1.018942799E-2
5.791666667E-3,1.127860043E-2
5.812500000E-3,1.218632795E-2
5.833333333E-3,1.290135458E-2
5.854166667E-3,1.358218491E-2
5.875000000E-3,1.401760429E-2
5.895833333E-3,1.400248893E-2
5.916666667E-3,1.396882720E-2
5.937500000E-3,1.462466177E-2
5.958333333E-3,1.531768497E-2
5.979166667E-3,1.543630101E-2
6.000000000E-3,1.543565653E-2
6.020833333E-3,1.511878520E-2
6.041666667E-3,1.423116587E-2
6.062500000E-3,1.355960220E-2
6.083333333E-3,1.286901440E-2
6.104166667E-3,1.157579478E-2
6.125000000E-3,1.069588773E-2
6.145833333E-3,1.029309537E-2
6.166666667E-3,1.034784317E-2
6.187500000E-3,1.162358001E-2
6.208333333E-3,1.292363182E-2
6.229166667E-3,1.396882534E-2
6.250000000E-3,1.601164043E-2
6.270833333E-3,1.821446791E-2
6.291666667E-3,1.918817312E-2
6.312500000E-3,1.902219653E-2
6.333333333E-3,1.817241870E-2
6.354166667E-3,1.701673120E-2
6.375000000E-3,1.655555703E-2
6.395833333E-3,1.715467870E-2
6.416666667E-3,1.791124791E-2
6.437500000E-3,1.827656664E-2
6.458333333E-3,1.827413775E-2
6.479166667E-3,1.832983643E-2
6.500000000E-3,1.842731982E-2
6.520833333E-3,1.844927855E-2
6.541666667E-3,1.899117418E-2
6.562500000E-3,1.916204952E-2
6.583333333E-3,1.822671853E-2
6.604166667E-3,1.735839993E-2
6.625000000E-3,1.657157019E-2
6.645833333E-3,1.548246481E-2
6.666666667E-3,1.497187093E-2
6.687500000E-3,1.510178857E-2
6.708333333E-3,1.495888270E-2
6.729166667E-3,1.411190070E-2
6.750000000E-3,1.260843500E-2
6.770833333E-3,1.064351946E-2
6.791666667E-3,8.480728604E-3
6.812500000E-3,6.630894262E-3
6.833333333E-3,5.370727275E-3
6.854166667E-3,4.323887639E-3
6.875000000E-3,3.210157622E-3
6.895833333E-3,1.966208452E-3
6.916666667E-3,5.142727168E-4
6.937500000E-3,-1.085977070E-3
6.958333333E-3,-2.609733958E-3
6.979166667E-3,-3.982859664E-3
7.000000000E-3,-5.426418036E-3
7.020833333E-3,-6.407882553E-3
7.041666667E-3,-6.542101502E-3
7.062500000E-3,-6.438839249E-3
7.083333333E-3,-5.849722307E-3
7.104166667E-3,-5.120025016E-3
7.125000000E-3,-5.069140345E-3
7.145833333E-3,-5.185607355E-3
7.166666667E-3,-5.454245955E-3
7.187500000E-3,-5.955944769E-3
7.208333333E-3,-6.202034652E-3
7.229166667E-3,-6.163692102E-3
7.250000000E-3,-6.033056416E-3
7.270833333E-3,-5.882587750E-3
7.291666667E-3,-5.875228904E-3
7.312500000E-3,-5.665457342E-3
7.333333333E-3,-4.940537270E-3
7.354166667E-3,-4.366586916E-3
7.375000000E-3,-3.818158526E-3
7.395833333E-3,-2.823510673E-3
7.416666667E-3,-1.579993870E-3
7.437500000E-3,8.573103696E-5
7.458333333E-3,2.150712069E-3
7.479166667E-3,4.106960725E-3
7.500000000E-3,5.480098538E-3
7.520833333E-3,6.109935232E-3
7.541666667E-3,6.123390514E-3
7.562500000E-3,6.040452514E-3
7.583333333E-3,6.389615592E-3
7.604166667E-3,7.045828737E-3
7.625000000E-3,7.933239453E-3
7.645833333E-3,8.875120431E-3
7.666666667E-3,9.620830417E-3
7.687500000E-3,1.006744988E-2
7.708333333E-3,9.882831946E-3
7.729166667E-3,9.325389750E-3
7.750000000E-3,8.572699502E-3
7.770833333E-3,7.581814192E-3
7.791666667E-3,7.090660743E-3
7.812500000E-3,7.186646108E-3
7.833333333E-3,7.266719826E-3
7.854166667E-3,7.166681811E-3
7.875000000E-3,6.860692985E-3
7.895833333E-3,6.301456131E-3
7.916666667E-3,5.668192171E-3
7.937500000E-3,5.392473191E-3
7.958333333E-3,5.131648853E-3
7.979166667E-3,4.364324734E-3
8.000000000E-3,3.511582268E-3
8.020833333E-3,2.145685023E-3
8.041666667E-3,5.637790309E-5
8.062500000E-3,-1.489631832E-3
8.083333333E-3,-2.270832891E-3
8.104166667E-3,-2.717704047E-3
8.125000000E-3,-2.733487170E-3
8.145833333E-3,-2.223765012E-3
8.166666667E-3,-1.625491073E-3
8.187500000E-3,-1.496186014E-3
8.208333333E-3,-1.601513941E-3
8.229166667E-3,-1.829661196E-3
8.250000000E-3,-2.139221644E-3
8.270833333E-3,-1.977772685E-3
8.291666667E-3,-8.990938077E-4
8.312500000E-3,9.157527238E-4
8.333333333E-3,2.631942276E-3
8.354166667E-3,4.031840246E-3
8.375000000E-3,5.306255072E-3
8.395833333E-3,5.924003199E-3
8.416666667E-3,6.387264468E-3
8.437500000E-3,7.304917090E-3
8.458333333E-3,7.655467838E-3
8.479166667E-3,7.638987154E-3
8.500000000E-3,7.893122733E-3
8.520833333E-3,7.742107846E-3
8.541666667E-3,7.533740252E-3
8.562500000E-3,7.860718295E-3
8.583333333E-3,7.973067462E-3
8.604166667E-3,7.975832559E-3
8.625000000E-3,8.458476514E-3
8.645833333E-3,8.966154419E-3
8.666666667E-3,9.595256299E-3
8.687500000E-3,1.032143272E-2
8.708333333E-3,1.044566743E-2
8.729166667E-3,1.039499417E-2
8.750000000E-3,1.072491426E-2
8.770833333E-3,1.094496343E-2
8.791666667E-3,1.099754311E-2
8.812500000E-3,1.113216672E-2
8.833333333E-3,1.093967445E-2
8.854166667E-3,1.048628148E-2
8.875000000E-3,1.040235721E-2
8.895833333E-3,1.080539916E-2
8.916666667E-3,1.140321605E-2
8.937500000E-3,1.213082299E-2
8.958333333E-3,1.278544310E-2
8.979166667E-3,1.320029702E-2
9.000000000E-3,1.375305653E-2
9.020833333E-3,1.418156363E-2
9.041666667E-3,1.427719928E-2
9.062500000E-3,1.459087431E-2
9.083333333E-3,1.499784924E-2
9.104166667E-3,1.496268623E-2
9.125000000E-3,1.466680318E-2
9.145833333E-3,1.429524925E-2
9.166666667E-3,1.358946320E-2
9.187500000E-3,1.273321453E-2
9.208333333E-3,1.182324439E-2
9.229166667E-3,1.077973749E-2
9.250000000E-3,1.003990974E-2
9.270833333E-3,9.887894616E-3
9.291666667E-3,9.971136227E-3
9.312500000E-3,9.887852706E-3
9.333333333E-3,9.465876967E-3
9.354166667E-3,8.635793813E-3
9.375000000E-3,7.732448168E-3
9.395833333E-3,7.051975932E-3
9.416666667E-3,6.545056589E-3
9.437500000E-3,6.117373705E-3
9.458333333E-3,5.549593829E-3
9.479166667E-3,4.614762031E-3
9.500000000E-3,3.602920100E-3
9.520833333E-3,2.858108375E-3
9.541666667E-3,2.325376961E-3
9.562500000E-3,1.995779341E-3
9.583333333E-3,1.476883655E-3
9.604166667E-3,7.994460175E-4
9.625000000E-3,8.025193529E-5
9.645833333E-3,-1.114946208E-3
9.666666667E-3,-1.990028890E-3
9.687500000E-3,-2.215415705E-3
9.708333333E-3,-2.419672674E-3
9.729166667E-3,-2.275238279E-3
9.750000000E-3,-1.740684733E-3
9.770833333E-3,-1.324284705E-3
9.791666667E-3,-1.033365144E-3
9.812500000E-3,-7.515068864E-4
9.833333333E-3,-6.808355683E-4
9.854166667E-3,-8.098100079E-4
9.875000000E-3,-7.549317088E-4
9.895833333E-3,-6.415602402E-4
9.916666667E-3,-7.410104154E-4
9.937500000E-3,-5.602317397E-4
9.958333333E-3,-8.397936472E-5
9.979166667E-3,3.450501827E-4
1.000000000E-2,1.183204819E-3
1.002083333E-2,2.432438545E-3
1.004166667E-2,3.756585298E-3
1.006250000E-2,5.282895640E-3
1.008333333E-2,7.186675444E-3
1.010416667E-2,9.129862301E-3
1.012500000E-2,1.067273784E-2
1.014583333E-2,1.196515840E-2
1.016666667E-2,1.292303763E-2
1.018750000E-2,1.376612671E-2
1.020833333E-2,1.492920332E-2
1.022916667E-2,1.638993062E-2
1.025000000E-2,1.799057797E-2
1.027083333E-2,1.956546679E-2
1.029166667E-2,2.105104551E-2
1.031250000E-2,2.196906693E-2
1.033333333E-2,2.252540737E-2
1.035416667E-2,2.293097414E-2
1.037500000E-2,2.277265303E-2
1.039583333E-2,2.247699350E-2
1.041666667E-2,2.230196819E-2
1.043750000E-2,2.205523476E-2
1.045833333E-2,2.176077664E-2
1.047916667E-2,2.159325965E-2
1.050000000E-2,2.148198709E-2
1.052083333E-2,2.152257971E-2
1.054166667E-2,2.179209515E-2
1.056250000E-2,2.184186876E-2
1.058333333E-2,2.198475227E-2
1.060416667E-2,2.228341997E-2
1.062500000E-2,2.232181653E-2
1.064583333E-2,2.250585705E-2
1.066666667E-2,2.303154022E-2
1.068750000E-2,2.372989058E-2
1.070833333E-2,2.460277453E-2
1.072916667E-2,2.571959235E-2
1.075000000E-2,2.714845724E-2
1.077083333E-2,2.856104076E-2
1.079166667E-2,2.964127064E-2
1.081250000E-2,3.054576740E-2
1.083333333E-2,3.136808053E-2
1.085416667E-2,3.219530731E-2
1.087500000E-2,3.321270645E-2
1.089583333E-2,3.473391011E-2
1.091666667E-2,3.683935851E-2
1.093750000E-2,3.877555206E-2
1.095833333E-2,4.048550874E-2
1.097916667E-2,4.253066331E-2
1.100000000E-2,4.453536123E-2
1.102083333E-2,4.643802345E-2
1.104166667E-2,4.866261408E-2
1.106250000E-2,5.080834776E-2
1.108333333E-2,5.252248421E-2
1.110416667E-2,5.406919122E-2
1.112500000E-2,5.571949482E-2
1.114583333E-2,5.755995959E-2
1.116666667E-2,5.931490660E-2
1.118750000E-2,6.077228114E-2
1.120833333E-2,6.196931750E-2
1.122916667E-2,6.271100044E-2
1.125000000E-2,6.309924275E-2
1.127083333E-2,6.354560703E-2
1.129166667E-2,6.383630633E-2
1.131250000E-2,6.365354359E-2
1.133333333E-2,6.346495450E-2
1.135416667E-2,6.366546452E-2
1.137500000E-2,6.375433505E-2
1.139583333E-2,6.349162757E-2
1.141666667E-2,6.316444278E-2
1.143750000E-2,6.248959154E-2
1.145833333E-2,6.159358472E-2
1.147916667E-2,6.090537459E-2
1.150000000E-2,6.016696990E-2
1.152083333E-2,5.947296321E-2
1.154166667E-2,5.896085501E-2
1.156250000E-2,5.854577944E-2
1.158333333E-2,5.821017176E-2
1.160416667E-2,5.782481655E-2
1.162500000E-2,5.750569329E-2
1.164583333E-2,5.733714253E-2
1.166666667E-2,5.726713687E-2
1.168750000E-2,5.751664191E-2
1.170833333E-2,5.809145421E-2
1.172916667E-2,5.856525898E-2
1.175000000E-2,5.913708359E-2
1.177083333E-2,5.991257727E-2
1.179166667E-2,6.046404690E-2
1.181250000E-2,6.109603494E-2
1.183333333E-2,6.187096238E-2
1.185416667E-2,6.235034764E-2
1.187500000E-2,6.276981533E-2
1.189583333E-2,6.327277422E-2
1.191666667E-2,6.365743279E-2
1.193750000E-2,6.418669969E-2
1.195833333E-2,6.479532272E-2
1.197916667E-2,6.517797709E-2
1.200000000E-2,6.541597843E-2
1.202083333E-2,6.541350484E-2
1.204166667E-2,6.520117074E-2
1.206250000E-2,6.487098336E-2
1.208333333E-2,6.438032538E-2
1.210416667E-2,6.380192935E-2
1.212500000E-2,6.305788457E-2
1.214583333E-2,6.195128709E-2
1.216666667E-2,6.062049791E-2
1.218750000E-2,5.922748893E-2
1.220833333E-2,5.768469721E-2
1.222916667E-2,5.616690964E-2
1.225000000E-2,5.471171439E-2
1.227083333E-2,5.329349637E-2
1.229166667E-2,5.194532871E-2
1.231250000E-2,5.064723268E-2
1.233333333E-2,4.955424368E-2
1.235416667E-2,4.846161604E-2
1.237500000E-2,4.728882015E-2
1.239583333E-2,4.611715674E-2
1.241666667E-2,4.482181370E-2
1.243750000E-2,4.347102344E-2
1.245833333E-2,4.209714755E-2
1.247916667E-2,4.070166498E-2
1.250000000E-2,3.940648586E-2
1.252083333E-2,3.828328475E-2
1.254166667E-2,3.738906235E-2
1.256250000E-2,3.668301925E-2
1.258333333E-2,3.594032302E-2
1.260416667E-2,3.521033376E-2
1.262500000E-2,3.443357348E-2
1.264583333E-2,3.346146271E-2
1.266666667E-2,3.255623579E-2
1.268750000E-2,3.164898232E-2
1.270833333E-2,3.070139140E-2
1.272916667E-2,2.992294356E-2
1.275000000E-2,2.921968326E-2
1.277083333E-2,2.846283838E-2
1.279166667E-2,2.765361592E-2
1.281250000E-2,2.689739317E-2
1.283333333E-2,2.630346268E-2
1.285416667E-2,2.602054365E-2
1.287500000E-2,2.609212697E-2
1.289583333E-2,2.628239989E-2
1.291666667E-2,2.655597590E-2
1.293750000E-2,2.712113038E-2
1.295833333E-2,2.774697542E-2
1.297916667E-2,2.824850939E-2
1.300000000E-2,2.880086377E-2
1.302083333E-2,2.917842753E-2
1.304166667E-2,2.925863862E-2
1.306250000E-2,2.912855521E-2
1.308333333E-2,2.873551846E-2
1.310416667E-2,2.826151252E-2
1.312500000E-2,2.779974975E-2
1.314583333E-2,2.727001533E-2
1.316666667E-2,2.640280686E-2
1.318750000E-2,2.479651757E-2
1.320833333E-2,2.285430767E-2
1.322916667E-2,2.133489028E-2
1.325000000E-2,2.007594332E-2
1.327083333E-2,1.884921640E-2
1.329166667E-2,1.775641181E-2
1.331250000E-2,1.630624570E-2
1.333333333E-2,1.443110127E-2
1.335416667E-2,1.269226894E-2
1.337500000E-2,1.118031330E-2
1.339583333E-2,9.933434427E-3
1.341666667E-2,8.888931945E-3
1.343750000E-2,7.803575136E-3
1.345833333E-2,6.704598200E-3
1.347916667E-2,5.661099218E-3
1.350000000E-2,4.739635158E-3
1.352083333E-2,3.939568531E-3
1.354166667E-2,3.221446648E-3
1.356250000E-2,2.617112361E-3
1.358333333E-2,2.177085727E-3
1.360416667E-2,1.972204540E-3
1.362500000E-2,1.689980039E-3
